# Example data for GREG File Analysis tab
# Wavelength (nm) vs Intensity (arbitrary units)
400,150.2
410,165.8
420,180.3
430,195.7
440,210.5
450,225.1
460,240.8
470,255.3
480,270.9
490,285.4
500,300.0
510,315.6
520,330.2
530,345.8
540,360.5
550,375.1
560,390.7
570,405.3
580,420.9
590,435.6
600,450.2
610,465.8
620,480.4
630,495.0
640,510.6
650,525.2
660,540.8
670,555.5
680,570.1
690,585.7
700,600.3
